#      n =  0
#  kappa = -1
# energy =  1.00000000E+00
#     dn =  0.00000000E+00
#SelfEne =  2.72113860E+32
#     vc = -5.71429633E+02
#  ilast =  243
#    rfn =  0.00000000E+00
#    pdx =  9.99819473E-01
#   bqp0 = -6.29778739E-05
#   bqp1 =  0.00000000E+00
#    idx = 4
#  phase =  7.23603279E-01


0    1.25000000E-07 -2.588919E-02 -3.126746E-07  8.991014E-07 -5.665542E-11  0.000000E+00  0.000000E+00
1    1.37045326E-07 -2.838392E-02 -3.427943E-07  9.857248E-07 -6.809952E-11  0.000000E+00  0.000000E+00
2    1.50251195E-07 -3.111901E-02 -3.758159E-07  1.080694E-06 -8.185502E-11  0.000000E+00  0.000000E+00
3    1.64729398E-07 -3.411762E-02 -4.120192E-07  1.184814E-06 -9.838875E-11  0.000000E+00  0.000000E+00
4    1.80602489E-07 -3.740513E-02 -4.517104E-07  1.298964E-06 -1.182618E-10  0.000000E+00  0.000000E+00
5    1.98004823E-07 -4.100935E-02 -4.952255E-07  1.424113E-06 -1.421486E-10  0.000000E+00  0.000000E+00
6    2.17083691E-07 -4.496077E-02 -5.429327E-07  1.561317E-06 -1.708597E-10  0.000000E+00  0.000000E+00
7    2.38000565E-07 -4.929284E-02 -5.952358E-07  1.711740E-06 -2.053694E-10  0.000000E+00  0.000000E+00
8    2.60932461E-07 -5.404225E-02 -6.525778E-07  1.876654E-06 -2.468485E-10  0.000000E+00  0.000000E+00
9    2.86073436E-07 -5.924913E-02 -7.154434E-07  2.057454E-06 -2.967046E-10  0.000000E+00  0.000000E+00
10   3.13636227E-07 -6.495752E-02 -7.843645E-07  2.255669E-06 -3.566291E-10  0.000000E+00  0.000000E+00
11   3.43854050E-07 -7.121582E-02 -8.599253E-07  2.472980E-06 -4.286550E-10  0.000000E+00  0.000000E+00
12   3.76982563E-07 -7.807682E-02 -9.427638E-07  2.711222E-06 -5.152258E-10  0.000000E+00  0.000000E+00
13   4.13302033E-07 -8.559861E-02 -1.033582E-06  2.972412E-06 -6.192781E-10  0.000000E+00  0.000000E+00
14   4.53119695E-07 -9.384475E-02 -1.133146E-06  3.258758E-06 -7.443413E-10  0.000000E+00  0.000000E+00
15   4.96772350E-07 -1.028850E-01 -1.242301E-06  3.572685E-06 -8.946573E-10  0.000000E+00  0.000000E+00
16   5.44629206E-07 -1.127957E-01 -1.361968E-06  3.916844E-06 -1.075324E-09  0.000000E+00  0.000000E+00
17   5.97094991E-07 -1.236607E-01 -1.493160E-06  4.294150E-06 -1.292468E-09  0.000000E+00  0.000000E+00
18   6.54613369E-07 -1.355716E-01 -1.636985E-06  4.707790E-06 -1.553452E-09  0.000000E+00  0.000000E+00
19   7.17670684E-07 -1.486291E-01 -1.794661E-06  5.161264E-06 -1.867125E-09  0.000000E+00  0.000000E+00
20   7.86800056E-07 -1.629433E-01 -1.967520E-06  5.658404E-06 -2.244120E-09  0.000000E+00  0.000000E+00
21   8.62585878E-07 -1.786353E-01 -2.157023E-06  6.203414E-06 -2.697216E-09  0.000000E+00  0.000000E+00
22   9.45668743E-07 -1.958370E-01 -2.364772E-06  6.800899E-06 -3.241770E-09  0.000000E+00  0.000000E+00
23   1.03675084E-06 -2.146938E-01 -2.592524E-06  7.455911E-06 -3.896234E-09  0.000000E+00  0.000000E+00
24   1.13660186E-06 -2.353644E-01 -2.842202E-06  8.173984E-06 -4.682781E-09  0.000000E+00  0.000000E+00
25   1.24606550E-06 -2.580225E-01 -3.115915E-06  8.961185E-06 -5.628055E-09  0.000000E+00  0.000000E+00
26   1.36606653E-06 -2.828590E-01 -3.415978E-06  9.824165E-06 -6.764069E-09  0.000000E+00  0.000000E+00
27   1.49761863E-06 -3.100821E-01 -3.744921E-06  1.077021E-05 -8.129283E-09  0.000000E+00  0.000000E+00
28   1.64183286E-06 -3.399207E-01 -4.105528E-06  1.180732E-05 -9.769909E-09  0.000000E+00  0.000000E+00
29   1.79992704E-06 -3.726243E-01 -4.500839E-06  1.294424E-05 -1.174146E-08  0.000000E+00  0.000000E+00
30   1.97323597E-06 -4.084662E-01 -4.934192E-06  1.419058E-05 -1.411062E-08  0.000000E+00  0.000000E+00
31   2.16322267E-06 -4.477461E-01 -5.409249E-06  1.555685E-05 -1.695749E-08  0.000000E+00  0.000000E+00
32   2.37149066E-06 -4.907897E-01 -5.930012E-06  1.705459E-05 -2.037828E-08  0.000000E+00  0.000000E+00
33   2.59979740E-06 -5.379551E-01 -6.500882E-06  1.869643E-05 -2.448851E-08  0.000000E+00  0.000000E+00
34   2.85006910E-06 -5.896315E-01 -7.126668E-06  2.049623E-05 -2.942690E-08  0.000000E+00  0.000000E+00
35   3.12441682E-06 -6.462445E-01 -7.812655E-06  2.246917E-05 -3.536001E-08  0.000000E+00  0.000000E+00
36   3.42515421E-06 -7.082567E-01 -8.564619E-06  2.463187E-05 -4.248774E-08  0.000000E+00  0.000000E+00
37   3.75481692E-06 -7.761727E-01 -9.388905E-06  2.700259E-05 -5.104999E-08  0.000000E+00  0.000000E+00
38   4.11618377E-06 -8.505400E-01 -1.029245E-05  2.960128E-05 -6.133455E-08  0.000000E+00  0.000000E+00
39   4.51230010E-06 -9.319539E-01 -1.128288E-05  3.244986E-05 -7.368662E-08  0.000000E+00  0.000000E+00
40   4.94650322E-06 -1.021058E+00 -1.236853E-05  3.557232E-05 -8.852004E-08  0.000000E+00  0.000000E+00
41   5.42245033E-06 -1.118546E+00 -1.355853E-05  3.899494E-05 -1.063307E-07  0.000000E+00  0.000000E+00
42   5.94414906E-06 -1.225164E+00 -1.486291E-05  4.274654E-05 -1.277127E-07  0.000000E+00  0.000000E+00
43   6.51599099E-06 -1.341716E+00 -1.629263E-05  4.685870E-05 -1.533768E-07  0.000000E+00  0.000000E+00
44   7.14278830E-06 -1.469054E+00 -1.785972E-05  5.136600E-05 -1.841734E-07  0.000000E+00  0.000000E+00
45   7.82981387E-06 -1.608080E+00 -1.957735E-05  5.630632E-05 -2.211185E-07  0.000000E+00  0.000000E+00
46   8.58284530E-06 -1.759747E+00 -2.145996E-05  6.172122E-05 -2.654245E-07  0.000000E+00  0.000000E+00
47   9.40821297E-06 -1.925038E+00 -2.352333E-05  6.765615E-05 -3.185367E-07  0.000000E+00  0.000000E+00
48   1.03128528E-05 -2.104966E+00 -2.578481E-05  7.416097E-05 -3.821748E-07  0.000000E+00  0.000000E+00
49   1.13043637E-05 -2.300541E+00 -2.826332E-05  8.129023E-05 -4.583809E-07  0.000000E+00  0.000000E+00
50   1.23910711E-05 -2.512756E+00 -3.097968E-05  8.910376E-05 -5.495743E-07  0.000000E+00  0.000000E+00
51   1.35820958E-05 -2.742535E+00 -3.395660E-05  9.766701E-05 -6.586120E-07  0.000000E+00  0.000000E+00
52   1.48874294E-05 -2.990687E+00 -3.721900E-05  1.070517E-04 -7.888563E-07  0.000000E+00  0.000000E+00
53   1.63180176E-05 -3.257834E+00 -4.079416E-05  1.173364E-04 -9.442456E-07  0.000000E+00  0.000000E+00
54   1.78858501E-05 -3.544308E+00 -4.471190E-05  1.286070E-04 -1.129367E-06  0.000000E+00  0.000000E+00
55   1.96040605E-05 -3.850038E+00 -4.900494E-05  1.409578E-04 -1.349529E-06  0.000000E+00  0.000000E+00
56   2.14870338E-05 -4.174376E+00 -5.370902E-05  1.544918E-04 -1.610813E-06  0.000000E+00  0.000000E+00
57   2.35505258E-05 -4.515911E+00 -5.886329E-05  1.693218E-04 -1.920120E-06  0.000000E+00  0.000000E+00
58   2.58117926E-05 -4.872228E+00 -6.451058E-05  1.855714E-04 -2.285157E-06  0.000000E+00  0.000000E+00
59   2.82897323E-05 -5.239645E+00 -7.069777E-05  2.033758E-04 -2.714383E-06  0.000000E+00  0.000000E+00
60   3.10050403E-05 -5.612938E+00 -7.747612E-05  2.228829E-04 -3.216851E-06  0.000000E+00  0.000000E+00
61   3.39803791E-05 -5.985151E+00 -8.490178E-05  2.442547E-04 -3.801949E-06  0.000000E+00  0.000000E+00
62   3.72405640E-05 -6.347542E+00 -9.303605E-05  2.676685E-04 -4.478991E-06  0.000000E+00  0.000000E+00
63   4.08127655E-05 -6.689917E+00 -1.019460E-04  2.933180E-04 -5.256687E-06  0.000000E+00  0.000000E+00
64   4.47267314E-05 -7.001489E+00 -1.117045E-04  3.214152E-04 -6.142548E-06  0.000000E+00  0.000000E+00
65   4.90150289E-05 -7.272379E+00 -1.223913E-04  3.521912E-04 -7.142356E-06  0.000000E+00  0.000000E+00
66   5.37133096E-05 -7.495587E+00 -1.340933E-04  3.858991E-04 -8.259928E-06  0.000000E+00  0.000000E+00
67   5.88605987E-05 -7.668699E+00 -1.469060E-04  4.228167E-04 -9.497380E-06  0.000000E+00  0.000000E+00
68   6.44996109E-05 -7.794461E+00 -1.609348E-04  4.632491E-04 -1.085595E-05  0.000000E+00  0.000000E+00
69   7.06770959E-05 -7.879804E+00 -1.762949E-04  5.075307E-04 -1.233719E-05  0.000000E+00  0.000000E+00
70   7.74442151E-05 -7.933818E+00 -1.931123E-04  5.560266E-04 -1.394416E-05  0.000000E+00  0.000000E+00
71   8.48569535E-05 -7.965645E+00 -2.115238E-04  6.091353E-04 -1.568232E-05  0.000000E+00  0.000000E+00
72   9.29765683E-05 -7.983050E+00 -2.316787E-04  6.672919E-04 -1.755999E-05  0.000000E+00  0.000000E+00
73   1.01870080E-04 -7.991830E+00 -2.537401E-04  7.309720E-04 -1.958838E-05  0.000000E+00  0.000000E+00
74   1.11610807E-04 -7.995870E+00 -2.778862E-04  8.006959E-04 -2.178142E-05  0.000000E+00  0.000000E+00
75   1.22278950E-04 -7.997522E+00 -3.043119E-04  8.770324E-04 -2.415548E-05  0.000000E+00  0.000000E+00
76   1.33962226E-04 -7.998075E+00 -3.332299E-04  9.606034E-04 -2.672910E-05  0.000000E+00  0.000000E+00
77   1.46756567E-04 -7.998165E+00 -3.648727E-04  1.052089E-03 -2.952288E-05  0.000000E+00  0.000000E+00
78   1.60766872E-04 -7.998075E+00 -3.994936E-04  1.152230E-03 -3.255941E-05  0.000000E+00  0.000000E+00
79   1.76107833E-04 -7.997915E+00 -4.373694E-04  1.261840E-03 -3.586330E-05  0.000000E+00  0.000000E+00
80   1.92904837E-04 -7.997721E+00 -4.788013E-04  1.381802E-03 -3.946133E-05  0.000000E+00  0.000000E+00
81   2.11294939E-04 -7.997505E+00 -5.241179E-04  1.513084E-03 -4.338260E-05  0.000000E+00  0.000000E+00
82   2.31427931E-04 -7.997268E+00 -5.736772E-04  1.656741E-03 -4.765874E-05  0.000000E+00  0.000000E+00
83   2.53467501E-04 -7.997008E+00 -6.278688E-04  1.813924E-03 -5.232418E-05  0.000000E+00  0.000000E+00
84   2.77592495E-04 -7.996723E+00 -6.871169E-04  1.985890E-03 -5.741634E-05  0.000000E+00  0.000000E+00
85   3.03998290E-04 -7.996411E+00 -7.518832E-04  2.174007E-03 -6.297595E-05  0.000000E+00  0.000000E+00
86   3.32898286E-04 -7.996070E+00 -8.226695E-04  2.379769E-03 -6.904734E-05  0.000000E+00  0.000000E+00
87   3.64525531E-04 -7.995697E+00 -9.000212E-04  2.604805E-03 -7.567875E-05  0.000000E+00  0.000000E+00
88   3.99134481E-04 -7.995289E+00 -9.845307E-04  2.850887E-03 -8.292270E-05  0.000000E+00  0.000000E+00
89   4.37002918E-04 -7.994842E+00 -1.076841E-03  3.119946E-03 -9.083633E-05  0.000000E+00  0.000000E+00
90   4.78434025E-04 -7.994353E+00 -1.177649E-03  3.414085E-03 -9.948181E-05  0.000000E+00  0.000000E+00
91   5.23758647E-04 -7.993818E+00 -1.287710E-03  3.735592E-03 -1.089268E-04  0.000000E+00  0.000000E+00
92   5.73337730E-04 -7.993234E+00 -1.407843E-03  4.086955E-03 -1.192448E-04  0.000000E+00  0.000000E+00
93   6.27564981E-04 -7.992594E+00 -1.538933E-03  4.470878E-03 -1.305159E-04  0.000000E+00  0.000000E+00
94   6.86869738E-04 -7.991895E+00 -1.681934E-03  4.890302E-03 -1.428270E-04  0.000000E+00  0.000000E+00
95   7.51720080E-04 -7.991130E+00 -1.837880E-03  5.348417E-03 -1.562725E-04  0.000000E+00  0.000000E+00
96   8.22626199E-04 -7.990294E+00 -2.007882E-03  5.848686E-03 -1.709550E-04  0.000000E+00  0.000000E+00
97   9.00144039E-04 -7.989380E+00 -2.193138E-03  6.394866E-03 -1.869859E-04  0.000000E+00  0.000000E+00
98   9.84879239E-04 -7.988382E+00 -2.394935E-03  6.991026E-03 -2.044857E-04  0.000000E+00  0.000000E+00
99   1.07749138E-03 -7.987290E+00 -2.614654E-03  7.641572E-03 -2.235856E-04  0.000000E+00  0.000000E+00
100  1.17869859E-03 -7.986098E+00 -2.853773E-03  8.351274E-03 -2.444272E-04  0.000000E+00  0.000000E+00
101  1.28928248E-03 -7.984795E+00 -3.113874E-03  9.125284E-03 -2.671640E-04  0.000000E+00  0.000000E+00
102  1.41009350E-03 -7.983372E+00 -3.396644E-03  9.969167E-03 -2.919622E-04  0.000000E+00  0.000000E+00
103  1.54205670E-03 -7.981819E+00 -3.703876E-03  1.088892E-02 -3.190011E-04  0.000000E+00  0.000000E+00
104  1.68617789E-03 -7.980122E+00 -4.037474E-03  1.189102E-02 -3.484746E-04  0.000000E+00  0.000000E+00
105  1.84355033E-03 -7.978270E+00 -4.399452E-03  1.298242E-02 -3.805915E-04  0.000000E+00  0.000000E+00
106  2.01536189E-03 -7.976249E+00 -4.791932E-03  1.417060E-02 -4.155771E-04  0.000000E+00  0.000000E+00
107  2.20290269E-03 -7.974044E+00 -5.217144E-03  1.546357E-02 -4.536737E-04  0.000000E+00  0.000000E+00
108  2.40757339E-03 -7.971638E+00 -5.677415E-03  1.686994E-02 -4.951416E-04  0.000000E+00  0.000000E+00
109  2.63089397E-03 -7.969014E+00 -6.175171E-03  1.839888E-02 -5.402603E-04  0.000000E+00  0.000000E+00
110  2.87451323E-03 -7.966153E+00 -6.712915E-03  2.006019E-02 -5.893293E-04  0.000000E+00  0.000000E+00
111  3.14021885E-03 -7.963034E+00 -7.293222E-03  2.186431E-02 -6.426688E-04  0.000000E+00  0.000000E+00
112  3.42994816E-03 -7.959635E+00 -7.918713E-03  2.382233E-02 -7.006209E-04  0.000000E+00  0.000000E+00
113  3.74579972E-03 -7.955931E+00 -8.592036E-03  2.594598E-02 -7.635500E-04  0.000000E+00  0.000000E+00
114  4.09004551E-03 -7.951897E+00 -9.315833E-03  2.824765E-02 -8.318434E-04  0.000000E+00  0.000000E+00
115  4.46514401E-03 -7.947505E+00 -1.009270E-02  3.074040E-02 -9.059122E-04  0.000000E+00  0.000000E+00
116  4.87375402E-03 -7.942724E+00 -1.092516E-02  3.343790E-02 -9.861909E-04  0.000000E+00  0.000000E+00
117  5.31874944E-03 -7.937522E+00 -1.181559E-02  3.635444E-02 -1.073138E-03  0.000000E+00  0.000000E+00
118  5.80323479E-03 -7.931864E+00 -1.276615E-02  3.950486E-02 -1.167234E-03  0.000000E+00  0.000000E+00
119  6.33056171E-03 -7.925711E+00 -1.377876E-02  4.290450E-02 -1.268985E-03  0.000000E+00  0.000000E+00
120  6.90434641E-03 -7.919023E+00 -1.485497E-02  4.656910E-02 -1.378916E-03  0.000000E+00  0.000000E+00
121  7.52848799E-03 -7.911757E+00 -1.599587E-02  5.051473E-02 -1.497572E-03  0.000000E+00  0.000000E+00
122  8.20718782E-03 -7.903866E+00 -1.720201E-02  5.475758E-02 -1.625517E-03  0.000000E+00  0.000000E+00
123  8.94496982E-03 -7.895299E+00 -1.847326E-02  5.931388E-02 -1.763329E-03  0.000000E+00  0.000000E+00
124  9.74670179E-03 -7.886005E+00 -1.980869E-02  6.419963E-02 -1.911594E-03  0.000000E+00  0.000000E+00
125  1.06176177E-02 -7.875925E+00 -2.120642E-02  6.943035E-02 -2.070908E-03  0.000000E+00  0.000000E+00
126  1.15633411E-02 -7.864999E+00 -2.266347E-02  7.502083E-02 -2.241862E-03  0.000000E+00  0.000000E+00
127  1.25899092E-02 -7.853161E+00 -2.417563E-02  8.098473E-02 -2.425045E-03  0.000000E+00  0.000000E+00
128  1.37037984E-02 -7.840344E+00 -2.573723E-02  8.733420E-02 -2.621025E-03  0.000000E+00  0.000000E+00
129  1.49119502E-02 -7.826474E+00 -2.734107E-02  9.407937E-02 -2.830345E-03  0.000000E+00  0.000000E+00
130  1.62217987E-02 -7.811474E+00 -2.897817E-02  1.012279E-01 -3.053513E-03  0.000000E+00  0.000000E+00
131  1.76412984E-02 -7.795261E+00 -3.063770E-02  1.087842E-01 -3.290981E-03  0.000000E+00  0.000000E+00
132  1.91789529E-02 -7.777750E+00 -3.230679E-02  1.167489E-01 -3.543137E-03  0.000000E+00  0.000000E+00
133  2.08438450E-02 -7.758850E+00 -3.397049E-02  1.251180E-01 -3.810283E-03  0.000000E+00  0.000000E+00
134  2.26456665E-02 -7.738465E+00 -3.561167E-02  1.338820E-01 -4.092618E-03  0.000000E+00  0.000000E+00
135  2.45947496E-02 -7.716495E+00 -3.721105E-02  1.430251E-01 -4.390215E-03  0.000000E+00  0.000000E+00
136  2.67020979E-02 -7.692835E+00 -3.874721E-02  1.525238E-01 -4.702994E-03  0.000000E+00  0.000000E+00
137  2.89794186E-02 -7.667378E+00 -4.019677E-02  1.623464E-01 -5.030706E-03  0.000000E+00  0.000000E+00
138  3.14391547E-02 -7.640009E+00 -4.153456E-02  1.724514E-01 -5.372893E-03  0.000000E+00  0.000000E+00
139  3.40945174E-02 -7.610612E+00 -4.273395E-02  1.827864E-01 -5.728869E-03  0.000000E+00  0.000000E+00
140  3.69595181E-02 -7.579066E+00 -4.376720E-02  1.932872E-01 -6.097685E-03  0.000000E+00  0.000000E+00
141  4.00490015E-02 -7.545246E+00 -4.460600E-02  2.038761E-01 -6.478103E-03  0.000000E+00  0.000000E+00
142  4.33786767E-02 -7.509027E+00 -4.522197E-02  2.144612E-01 -6.868560E-03  0.000000E+00  0.000000E+00
143  4.69651498E-02 -7.470280E+00 -4.558730E-02  2.249352E-01 -7.267147E-03  0.000000E+00  0.000000E+00
144  5.08259544E-02 -7.428873E+00 -4.567538E-02  2.351744E-01 -7.671577E-03  0.000000E+00  0.000000E+00
145  5.49795817E-02 -7.384675E+00 -4.546139E-02  2.450380E-01 -8.079165E-03  0.000000E+00  0.000000E+00
146  5.94455102E-02 -7.337555E+00 -4.492289E-02  2.543678E-01 -8.486812E-03  0.000000E+00  0.000000E+00
147  6.42442337E-02 -7.287384E+00 -4.404013E-02  2.629879E-01 -8.890990E-03  0.000000E+00  0.000000E+00
148  6.93972879E-02 -7.234033E+00 -4.279629E-02  2.707052E-01 -9.287745E-03  0.000000E+00  0.000000E+00
149  7.49272759E-02 -7.177379E+00 -4.117732E-02  2.773100E-01 -9.672701E-03  0.000000E+00  0.000000E+00
150  8.08578914E-02 -7.117301E+00 -3.917148E-02  2.825777E-01 -1.004108E-02  0.000000E+00  0.000000E+00
151  8.72139406E-02 -7.053687E+00 -3.676851E-02  2.862708E-01 -1.038773E-02  0.000000E+00  0.000000E+00
152  9.40213612E-02 -6.986433E+00 -3.395833E-02  2.881415E-01 -1.070718E-02  0.000000E+00  0.000000E+00
153  1.01307240E-01 -6.915443E+00 -3.072954E-02  2.879359E-01 -1.099400E-02  0.000000E+00  0.000000E+00
154  1.09099828E-01 -6.840634E+00 -2.706763E-02  2.853979E-01 -1.124203E-02  0.000000E+00  0.000000E+00
155  1.17428551E-01 -6.761936E+00 -2.295340E-02  2.802753E-01 -1.144529E-02  0.000000E+00  0.000000E+00
156  1.26324021E-01 -6.679295E+00 -1.836168E-02  2.723254E-01 -1.159783E-02  0.000000E+00  0.000000E+00
157  1.35818040E-01 -6.592676E+00 -1.326128E-02  2.613227E-01 -1.169386E-02  0.000000E+00  0.000000E+00
158  1.45943608E-01 -6.502061E+00 -7.616330E-03  2.470663E-01 -1.172789E-02  0.000000E+00  0.000000E+00
159  1.56734918E-01 -6.407455E+00 -1.390218E-03  2.293888E-01 -1.169490E-02  0.000000E+00  0.000000E+00
160  1.68227357E-01 -6.308887E+00  5.447468E-03  2.081645E-01 -1.159051E-02  0.000000E+00  0.000000E+00
161  1.80457500E-01 -6.206413E+00  1.291022E-02  1.833190E-01 -1.141114E-02  0.000000E+00  0.000000E+00
162  1.93463100E-01 -6.100113E+00  2.098029E-02  1.548375E-01 -1.115414E-02  0.000000E+00  0.000000E+00
163  2.07283073E-01 -5.990099E+00  2.959144E-02  1.227734E-01 -1.081802E-02  0.000000E+00  0.000000E+00
164  2.21957488E-01 -5.876513E+00  3.861188E-02  8.725509E-02 -1.040253E-02  0.000000E+00  0.000000E+00
165  2.37527547E-01 -5.759528E+00  4.783199E-02  4.849284E-02 -9.908760E-03  0.000000E+00  0.000000E+00
166  2.54035557E-01 -5.639349E+00  5.696500E-02  6.782651E-03 -9.339256E-03  0.000000E+00  0.000000E+00
167  2.71524915E-01 -5.516215E+00  6.566885E-02 -3.749101E-02 -8.697990E-03  0.000000E+00  0.000000E+00
168  2.90040073E-01 -5.390394E+00  7.359556E-02 -8.385492E-02 -7.990356E-03  0.000000E+00  0.000000E+00
169  3.09626510E-01 -5.262191E+00  8.046400E-02 -1.317492E-01 -7.223095E-03  0.000000E+00  0.000000E+00
170  3.30330701E-01 -5.131939E+00  8.613912E-02 -1.805317E-01 -6.404189E-03  0.000000E+00  0.000000E+00
171  3.52200076E-01 -5.000000E+00  9.068917E-02 -2.294859E-01 -5.542731E-03  0.000000E+00  0.000000E+00
172  3.75282987E-01 -4.866764E+00  9.439661E-02 -2.778299E-01 -4.648783E-03  0.000000E+00  0.000000E+00
173  3.99628669E-01 -4.732646E+00  9.771564E-02 -3.247303E-01 -3.733214E-03  0.000000E+00  0.000000E+00
174  4.25287190E-01 -4.598081E+00  1.011926E-01 -3.693169E-01 -2.807518E-03  0.000000E+00  0.000000E+00
175  4.52309418E-01 -4.463522E+00  1.053754E-01 -4.107013E-01 -1.883596E-03  0.000000E+00  0.000000E+00
176  4.80746967E-01 -4.329435E+00  1.107362E-01 -4.479964E-01 -9.735034E-04  0.000000E+00  0.000000E+00
177  5.10652156E-01 -4.196293E+00  1.176180E-01 -4.803379E-01 -8.916437E-05  0.000000E+00  0.000000E+00
178  5.42077957E-01 -4.064573E+00  1.262077E-01 -5.069063E-01  7.579348E-04  0.000000E+00  0.000000E+00
179  5.75077953E-01 -3.934749E+00  1.365293E-01 -5.269480E-01  1.557054E-03  0.000000E+00  0.000000E+00
180  6.09706280E-01 -3.807288E+00  1.484528E-01 -5.397954E-01  2.298492E-03  0.000000E+00  0.000000E+00
181  6.46017586E-01 -3.682642E+00  1.617097E-01 -5.448849E-01  2.973834E-03  0.000000E+00  0.000000E+00
182  6.84066975E-01 -3.561242E+00  1.759150E-01 -5.417719E-01  3.576154E-03  0.000000E+00  0.000000E+00
183  7.23909960E-01 -3.443497E+00  1.905882E-01 -5.301423E-01  4.100143E-03  0.000000E+00  0.000000E+00
184  7.65602413E-01 -3.329783E+00  2.051764E-01 -5.098204E-01  4.542162E-03  0.000000E+00  0.000000E+00
185  8.09200516E-01 -3.220442E+00  2.190777E-01 -4.807739E-01  4.900224E-03  0.000000E+00  0.000000E+00
186  8.54760711E-01 -3.115774E+00  2.316665E-01 -4.431148E-01  5.173899E-03  0.000000E+00  0.000000E+00
187  9.02339653E-01 -3.016038E+00  2.423237E-01 -3.970979E-01  5.364158E-03  0.000000E+00  0.000000E+00
188  9.51994160E-01 -2.921445E+00  2.504744E-01 -3.431170E-01  5.473169E-03  0.000000E+00  0.000000E+00
