#      n =  0
#  kappa = -1
# energy =  1.00000000E+00
#     dn =  0.00000000E+00
#SelfEne =  2.72113860E+32
#     vc = -5.71252608E+02
#  ilast =  243
#    rfn =  0.00000000E+00
#    pdx =  9.99819473E-01
#   bqp0 = -6.29778739E-05
#   bqp1 =  0.00000000E+00
#    idx = 4
#  phase =  6.88115235E-01


0    1.25000000E-07 -2.588909E-02 -2.566118E-07  8.989890E-07 -5.665011E-11  0.000000E+00  0.000000E+00
1    1.37045326E-07 -2.838381E-02 -2.813283E-07  9.856015E-07 -6.809304E-11  0.000000E+00  0.000000E+00
2    1.50251195E-07 -3.111889E-02 -3.084261E-07  1.080559E-06 -8.184714E-11  0.000000E+00  0.000000E+00
3    1.64729398E-07 -3.411749E-02 -3.381349E-07  1.184665E-06 -9.837920E-11  0.000000E+00  0.000000E+00
4    1.80602489E-07 -3.740499E-02 -3.707059E-07  1.298802E-06 -1.182503E-10  0.000000E+00  0.000000E+00
5    1.98004823E-07 -4.100919E-02 -4.064148E-07  1.423934E-06 -1.421347E-10  0.000000E+00  0.000000E+00
6    2.17083691E-07 -4.496060E-02 -4.455637E-07  1.561122E-06 -1.708429E-10  0.000000E+00  0.000000E+00
7    2.38000565E-07 -4.929265E-02 -4.884841E-07  1.711526E-06 -2.053491E-10  0.000000E+00  0.000000E+00
8    2.60932461E-07 -5.404205E-02 -5.355395E-07  1.876419E-06 -2.468241E-10  0.000000E+00  0.000000E+00
9    2.86073436E-07 -5.924891E-02 -5.871275E-07  2.057196E-06 -2.966752E-10  0.000000E+00  0.000000E+00
10   3.13636227E-07 -6.495728E-02 -6.436846E-07  2.255387E-06 -3.565937E-10  0.000000E+00  0.000000E+00
11   3.43854050E-07 -7.121555E-02 -7.056905E-07  2.472671E-06 -4.286124E-10  0.000000E+00  0.000000E+00
12   3.76982563E-07 -7.807652E-02 -7.736684E-07  2.710883E-06 -5.151745E-10  0.000000E+00  0.000000E+00
13   4.13302033E-07 -8.559829E-02 -8.481942E-07  2.972040E-06 -6.192164E-10  0.000000E+00  0.000000E+00
14   4.53119695E-07 -9.384440E-02 -9.298979E-07  3.258351E-06 -7.442672E-10  0.000000E+00  0.000000E+00
15   4.96772350E-07 -1.028846E-01 -1.019471E-06  3.572238E-06 -8.945682E-10  0.000000E+00  0.000000E+00
16   5.44629206E-07 -1.127953E-01 -1.117670E-06  3.916355E-06 -1.075217E-09  0.000000E+00  0.000000E+00
17   5.97094991E-07 -1.236602E-01 -1.225328E-06  4.293613E-06 -1.292339E-09  0.000000E+00  0.000000E+00
18   6.54613369E-07 -1.355711E-01 -1.343352E-06  4.707202E-06 -1.553297E-09  0.000000E+00  0.000000E+00
19   7.17670684E-07 -1.486285E-01 -1.472742E-06  5.160618E-06 -1.866939E-09  0.000000E+00  0.000000E+00
20   7.86800056E-07 -1.629427E-01 -1.614591E-06  5.657696E-06 -2.243896E-09  0.000000E+00  0.000000E+00
21   8.62585878E-07 -1.786346E-01 -1.770099E-06  6.202638E-06 -2.696948E-09  0.000000E+00  0.000000E+00
22   9.45668743E-07 -1.958363E-01 -1.940579E-06  6.800049E-06 -3.241447E-09  0.000000E+00  0.000000E+00
23   1.03675084E-06 -2.146930E-01 -2.127473E-06  7.454979E-06 -3.895845E-09  0.000000E+00  0.000000E+00
24   1.13660186E-06 -2.353635E-01 -2.332360E-06  8.172962E-06 -4.682315E-09  0.000000E+00  0.000000E+00
25   1.24606550E-06 -2.580216E-01 -2.556971E-06  8.960064E-06 -5.627494E-09  0.000000E+00  0.000000E+00
26   1.36606653E-06 -2.828579E-01 -2.803204E-06  9.822937E-06 -6.763394E-09  0.000000E+00  0.000000E+00
27   1.49761863E-06 -3.100810E-01 -3.073136E-06  1.076887E-05 -8.128473E-09  0.000000E+00  0.000000E+00
28   1.64183286E-06 -3.399194E-01 -3.369051E-06  1.180584E-05 -9.768935E-09  0.000000E+00  0.000000E+00
29   1.79992704E-06 -3.726229E-01 -3.693444E-06  1.294262E-05 -1.174029E-08  0.000000E+00  0.000000E+00
30   1.97323597E-06 -4.084647E-01 -4.049055E-06  1.418880E-05 -1.410921E-08  0.000000E+00  0.000000E+00
31   2.16322267E-06 -4.477444E-01 -4.438887E-06  1.555491E-05 -1.695580E-08  0.000000E+00  0.000000E+00
32   2.37149066E-06 -4.907879E-01 -4.866225E-06  1.705246E-05 -2.037624E-08  0.000000E+00  0.000000E+00
33   2.59979740E-06 -5.379531E-01 -5.334681E-06  1.869410E-05 -2.448606E-08  0.000000E+00  0.000000E+00
34   2.85006910E-06 -5.896292E-01 -5.848199E-06  2.049367E-05 -2.942397E-08  0.000000E+00  0.000000E+00
35   3.12441682E-06 -6.462420E-01 -6.411118E-06  2.246636E-05 -3.535649E-08  0.000000E+00  0.000000E+00
36   3.42515421E-06 -7.082540E-01 -7.028175E-06  2.462879E-05 -4.248351E-08  0.000000E+00  0.000000E+00
37   3.75481692E-06 -7.761698E-01 -7.704579E-06  2.699921E-05 -5.104490E-08  0.000000E+00  0.000000E+00
38   4.11618377E-06 -8.505368E-01 -8.446022E-06  2.959758E-05 -6.132844E-08  0.000000E+00  0.000000E+00
39   4.51230010E-06 -9.319504E-01 -9.258754E-06  3.244580E-05 -7.367927E-08  0.000000E+00  0.000000E+00
40   4.94650322E-06 -1.021054E+00 -1.014962E-05  3.556787E-05 -8.851122E-08  0.000000E+00  0.000000E+00
41   5.42245033E-06 -1.118541E+00 -1.112611E-05  3.899007E-05 -1.063202E-07  0.000000E+00  0.000000E+00
42   5.94414906E-06 -1.225160E+00 -1.219645E-05  4.274120E-05 -1.277000E-07  0.000000E+00  0.000000E+00
43   6.51599099E-06 -1.341711E+00 -1.336965E-05  4.685284E-05 -1.533616E-07  0.000000E+00  0.000000E+00
44   7.14278830E-06 -1.469048E+00 -1.465555E-05  5.135957E-05 -1.841551E-07  0.000000E+00  0.000000E+00
45   7.82981387E-06 -1.608074E+00 -1.606497E-05  5.629928E-05 -2.210964E-07  0.000000E+00  0.000000E+00
46   8.58284530E-06 -1.759741E+00 -1.760975E-05  6.171351E-05 -2.653980E-07  0.000000E+00  0.000000E+00
47   9.40821297E-06 -1.925031E+00 -1.930283E-05  6.764769E-05 -3.185049E-07  0.000000E+00  0.000000E+00
48   1.03128528E-05 -2.104958E+00 -2.115845E-05  7.415170E-05 -3.821366E-07  0.000000E+00  0.000000E+00
49   1.13043637E-05 -2.300532E+00 -2.319213E-05  8.128007E-05 -4.583352E-07  0.000000E+00  0.000000E+00
50   1.23910711E-05 -2.512746E+00 -2.542093E-05  8.909262E-05 -5.495194E-07  0.000000E+00  0.000000E+00
51   1.35820958E-05 -2.742524E+00 -2.786346E-05  9.765480E-05 -6.585463E-07  0.000000E+00  0.000000E+00
52   1.48874294E-05 -2.990675E+00 -3.054017E-05  1.070383E-04 -7.887776E-07  0.000000E+00  0.000000E+00
53   1.63180176E-05 -3.257821E+00 -3.347341E-05  1.173217E-04 -9.441513E-07  0.000000E+00  0.000000E+00
54   1.78858501E-05 -3.544294E+00 -3.668763E-05  1.285910E-04 -1.129255E-06  0.000000E+00  0.000000E+00
55   1.96040605E-05 -3.850022E+00 -4.020961E-05  1.409402E-04 -1.349394E-06  0.000000E+00  0.000000E+00
56   2.14870338E-05 -4.174359E+00 -4.406864E-05  1.544725E-04 -1.610653E-06  0.000000E+00  0.000000E+00
57   2.35505258E-05 -4.515892E+00 -4.829678E-05  1.693007E-04 -1.919928E-06  0.000000E+00  0.000000E+00
58   2.58117926E-05 -4.872208E+00 -5.292908E-05  1.855482E-04 -2.284928E-06  0.000000E+00  0.000000E+00
59   2.82897323E-05 -5.239623E+00 -5.800393E-05  2.033504E-04 -2.714111E-06  0.000000E+00  0.000000E+00
60   3.10050403E-05 -5.612914E+00 -6.356325E-05  2.228550E-04 -3.216529E-06  0.000000E+00  0.000000E+00
61   3.39803791E-05 -5.985124E+00 -6.965298E-05  2.442242E-04 -3.801568E-06  0.000000E+00  0.000000E+00
62   3.72405640E-05 -6.347512E+00 -7.632323E-05  2.676350E-04 -4.478541E-06  0.000000E+00  0.000000E+00
63   4.08127655E-05 -6.689885E+00 -8.362875E-05  2.932814E-04 -5.256158E-06  0.000000E+00  0.000000E+00
64   4.47267314E-05 -7.001454E+00 -9.162912E-05  3.213750E-04 -6.141930E-06  0.000000E+00  0.000000E+00
65   4.90150289E-05 -7.272341E+00 -1.003891E-04  3.521471E-04 -7.141635E-06  0.000000E+00  0.000000E+00
66   5.37133096E-05 -7.495545E+00 -1.099795E-04  3.858509E-04 -8.259092E-06  0.000000E+00  0.000000E+00
67   5.88605987E-05 -7.668653E+00 -1.204783E-04  4.227639E-04 -9.496416E-06  0.000000E+00  0.000000E+00
68   6.44996109E-05 -7.794410E+00 -1.319712E-04  4.631912E-04 -1.085484E-05  0.000000E+00  0.000000E+00
69   7.06770959E-05 -7.879748E+00 -1.445528E-04  5.074672E-04 -1.233593E-05  0.000000E+00  0.000000E+00
70   7.74442151E-05 -7.933757E+00 -1.583256E-04  5.559571E-04 -1.394272E-05  0.000000E+00  0.000000E+00
71   8.48569535E-05 -7.965579E+00 -1.734011E-04  6.090591E-04 -1.568070E-05  0.000000E+00  0.000000E+00
72   9.29765683E-05 -7.982977E+00 -1.899009E-04  6.672085E-04 -1.755816E-05  0.000000E+00  0.000000E+00
73   1.01870080E-04 -7.991751E+00 -2.079575E-04  7.308806E-04 -1.958633E-05  0.000000E+00  0.000000E+00
74   1.11610807E-04 -7.995783E+00 -2.277158E-04  8.005958E-04 -2.177912E-05  0.000000E+00  0.000000E+00
75   1.22278950E-04 -7.997427E+00 -2.493342E-04  8.769228E-04 -2.415289E-05  0.000000E+00  0.000000E+00
76   1.33962226E-04 -7.997970E+00 -2.729856E-04  9.604834E-04 -2.672621E-05  0.000000E+00  0.000000E+00
77   1.46756567E-04 -7.998051E+00 -2.988587E-04  1.051957E-03 -2.951965E-05  0.000000E+00  0.000000E+00
78   1.60766872E-04 -7.997949E+00 -3.271590E-04  1.152086E-03 -3.255581E-05  0.000000E+00  0.000000E+00
79   1.76107833E-04 -7.997777E+00 -3.581108E-04  1.261682E-03 -3.585928E-05  0.000000E+00  0.000000E+00
80   1.92904837E-04 -7.997571E+00 -3.919582E-04  1.381629E-03 -3.945683E-05  0.000000E+00  0.000000E+00
81   2.11294939E-04 -7.997340E+00 -4.289669E-04  1.512895E-03 -4.337757E-05  0.000000E+00  0.000000E+00
82   2.31427931E-04 -7.997087E+00 -4.694263E-04  1.656534E-03 -4.765313E-05  0.000000E+00  0.000000E+00
83   2.53467501E-04 -7.996810E+00 -5.136508E-04  1.813698E-03 -5.231790E-05  0.000000E+00  0.000000E+00
84   2.77592495E-04 -7.996506E+00 -5.619824E-04  1.985642E-03 -5.740931E-05  0.000000E+00  0.000000E+00
85   3.03998290E-04 -7.996174E+00 -6.147925E-04  2.173735E-03 -6.296807E-05  0.000000E+00  0.000000E+00
86   3.32898286E-04 -7.995810E+00 -6.724846E-04  2.379472E-03 -6.903850E-05  0.000000E+00  0.000000E+00
87   3.64525531E-04 -7.995412E+00 -7.354961E-04  2.604480E-03 -7.566882E-05  0.000000E+00  0.000000E+00
88   3.99134481E-04 -7.994977E+00 -8.043013E-04  2.850531E-03 -8.291153E-05  0.000000E+00  0.000000E+00
89   4.37002918E-04 -7.994501E+00 -8.794139E-04  3.119557E-03 -9.082374E-05  0.000000E+00  0.000000E+00
90   4.78434025E-04 -7.993980E+00 -9.613896E-04  3.413659E-03 -9.946760E-05  0.000000E+00  0.000000E+00
91   5.23758647E-04 -7.993409E+00 -1.050829E-03  3.735126E-03 -1.089107E-04  0.000000E+00  0.000000E+00
92   5.73337730E-04 -7.992786E+00 -1.148381E-03  4.086445E-03 -1.192266E-04  0.000000E+00  0.000000E+00
93   6.27564981E-04 -7.992104E+00 -1.254745E-03  4.470321E-03 -1.304953E-04  0.000000E+00  0.000000E+00
94   6.86869738E-04 -7.991358E+00 -1.370674E-03  4.889693E-03 -1.428036E-04  0.000000E+00  0.000000E+00
95   7.51720080E-04 -7.990543E+00 -1.496976E-03  5.347751E-03 -1.562458E-04  0.000000E+00  0.000000E+00
96   8.22626199E-04 -7.989652E+00 -1.634522E-03  5.847958E-03 -1.709246E-04  0.000000E+00  0.000000E+00
97   9.00144039E-04 -7.988678E+00 -1.784242E-03  6.394071E-03 -1.869511E-04  0.000000E+00  0.000000E+00
98   9.84879239E-04 -7.987613E+00 -1.947131E-03  6.990157E-03 -2.044459E-04  0.000000E+00  0.000000E+00
99   1.07749138E-03 -7.986450E+00 -2.124250E-03  7.640624E-03 -2.235399E-04  0.000000E+00  0.000000E+00
100  1.17869859E-03 -7.985178E+00 -2.316729E-03  8.350239E-03 -2.443748E-04  0.000000E+00  0.000000E+00
101  1.28928248E-03 -7.983790E+00 -2.525766E-03  9.124154E-03 -2.671037E-04  0.000000E+00  0.000000E+00
102  1.41009350E-03 -7.982273E+00 -2.752626E-03  9.967934E-03 -2.918927E-04  0.000000E+00  0.000000E+00
103  1.54205670E-03 -7.980617E+00 -2.998644E-03  1.088758E-02 -3.189209E-04  0.000000E+00  0.000000E+00
104  1.68617789E-03 -7.978808E+00 -3.265220E-03  1.188956E-02 -3.483817E-04  0.000000E+00  0.000000E+00
105  1.84355033E-03 -7.976834E+00 -3.553815E-03  1.298083E-02 -3.804840E-04  0.000000E+00  0.000000E+00
106  2.01536189E-03 -7.974680E+00 -3.865947E-03  1.416887E-02 -4.154524E-04  0.000000E+00  0.000000E+00
107  2.20290269E-03 -7.972329E+00 -4.203181E-03  1.546169E-02 -4.535288E-04  0.000000E+00  0.000000E+00
108  2.40757339E-03 -7.969765E+00 -4.567120E-03  1.686789E-02 -4.949731E-04  0.000000E+00  0.000000E+00
109  2.63089397E-03 -7.966968E+00 -4.959391E-03  1.839665E-02 -5.400642E-04  0.000000E+00  0.000000E+00
110  2.87451323E-03 -7.963919E+00 -5.381628E-03  2.005778E-02 -5.891007E-04  0.000000E+00  0.000000E+00
111  3.14021885E-03 -7.960594E+00 -5.835448E-03  2.186170E-02 -6.424020E-04  0.000000E+00  0.000000E+00
112  3.42994816E-03 -7.956972E+00 -6.322427E-03  2.381951E-02 -7.003093E-04  0.000000E+00  0.000000E+00
113  3.74579972E-03 -7.953025E+00 -6.844067E-03  2.594293E-02 -7.631857E-04  0.000000E+00  0.000000E+00
114  4.09004551E-03 -7.948726E+00 -7.401756E-03  2.824437E-02 -8.314174E-04  0.000000E+00  0.000000E+00
115  4.46514401E-03 -7.944046E+00 -7.996722E-03  3.073687E-02 -9.054135E-04  0.000000E+00  0.000000E+00
116  4.87375402E-03 -7.938952E+00 -8.629983E-03  3.343412E-02 -9.856069E-04  0.000000E+00  0.000000E+00
117  5.31874944E-03 -7.933409E+00 -9.302277E-03  3.635041E-02 -1.072454E-03  0.000000E+00  0.000000E+00
118  5.80323479E-03 -7.927380E+00 -1.001400E-02  3.950058E-02 -1.166433E-03  0.000000E+00  0.000000E+00
119  6.33056171E-03 -7.920825E+00 -1.076511E-02  4.289998E-02 -1.268046E-03  0.000000E+00  0.000000E+00
120  6.90434641E-03 -7.913701E+00 -1.155505E-02  4.656436E-02 -1.377814E-03  0.000000E+00  0.000000E+00
121  7.52848799E-03 -7.905961E+00 -1.238263E-02  5.050979E-02 -1.496281E-03  0.000000E+00  0.000000E+00
122  8.20718782E-03 -7.897556E+00 -1.324592E-02  5.475250E-02 -1.624004E-03  0.000000E+00  0.000000E+00
123  8.94496982E-03 -7.888433E+00 -1.414212E-02  5.930872E-02 -1.761555E-03  0.000000E+00  0.000000E+00
124  9.74670179E-03 -7.878535E+00 -1.506745E-02  6.419448E-02 -1.909517E-03  0.000000E+00  0.000000E+00
125  1.06176177E-02 -7.867802E+00 -1.601696E-02  6.942535E-02 -2.068476E-03  0.000000E+00  0.000000E+00
126  1.15633411E-02 -7.856169E+00 -1.698443E-02  7.501615E-02 -2.239017E-03  0.000000E+00  0.000000E+00
127  1.25899092E-02 -7.843568E+00 -1.796220E-02  8.098060E-02 -2.421718E-03  0.000000E+00  0.000000E+00
128  1.37037984E-02 -7.829925E+00 -1.894103E-02  8.733091E-02 -2.617137E-03  0.000000E+00  0.000000E+00
129  1.49119502E-02 -7.815165E+00 -1.991000E-02  9.407733E-02 -2.825808E-03  0.000000E+00  0.000000E+00
130  1.62217987E-02 -7.799203E+00 -2.085632E-02  1.012276E-01 -3.048223E-03  0.000000E+00  0.000000E+00
131  1.76412984E-02 -7.781956E+00 -2.176534E-02  1.087863E-01 -3.284822E-03  0.000000E+00  0.000000E+00
132  1.91789529E-02 -7.763330E+00 -2.262042E-02  1.167542E-01 -3.535976E-03  0.000000E+00  0.000000E+00
133  2.08438450E-02 -7.743231E+00 -2.340299E-02  1.251276E-01 -3.801971E-03  0.000000E+00  0.000000E+00
134  2.26456665E-02 -7.721558E+00 -2.409261E-02  1.338973E-01 -4.082986E-03  0.000000E+00  0.000000E+00
135  2.45947496E-02 -7.698205E+00 -2.466711E-02  1.430476E-01 -4.379073E-03  0.000000E+00  0.000000E+00
136  2.67020979E-02 -7.673064E+00 -2.510285E-02  1.525557E-01 -4.690136E-03  0.000000E+00  0.000000E+00
137  2.89794186E-02 -7.646019E+00 -2.537509E-02  1.623903E-01 -5.015900E-03  0.000000E+00  0.000000E+00
138  3.14391547E-02 -7.616953E+00 -2.545845E-02  1.725104E-01 -5.355889E-03  0.000000E+00  0.000000E+00
139  3.40945174E-02 -7.585743E+00 -2.532756E-02  1.828646E-01 -5.709396E-03  0.000000E+00  0.000000E+00
140  3.69595181E-02 -7.552264E+00 -2.495778E-02  1.933893E-01 -6.075453E-03  0.000000E+00  0.000000E+00
141  4.00490015E-02 -7.516386E+00 -2.432608E-02  2.040082E-01 -6.452807E-03  0.000000E+00  0.000000E+00
142  4.33786767E-02 -7.477978E+00 -2.341206E-02  2.146304E-01 -6.839883E-03  0.000000E+00  0.000000E+00
143  4.69651498E-02 -7.436908E+00 -2.219897E-02  2.251502E-01 -7.234768E-03  0.000000E+00  0.000000E+00
144  5.08259544E-02 -7.393040E+00 -2.067483E-02  2.354455E-01 -7.635179E-03  0.000000E+00  0.000000E+00
145  5.49795817E-02 -7.346240E+00 -1.883354E-02  2.453776E-01 -8.038445E-03  0.000000E+00  0.000000E+00
146  5.94455102E-02 -7.296374E+00 -1.667575E-02  2.547905E-01 -8.441494E-03  0.000000E+00  0.000000E+00
147  6.42442337E-02 -7.243310E+00 -1.420970E-02  2.635108E-01 -8.840845E-03  0.000000E+00  0.000000E+00
148  6.93972879E-02 -7.186920E+00 -1.145158E-02  2.713482E-01 -9.232605E-03  0.000000E+00  0.000000E+00
149  7.49272759E-02 -7.127080E+00 -8.425568E-03  2.780962E-01 -9.612483E-03  0.000000E+00  0.000000E+00
150  8.08578914E-02 -7.063672E+00 -5.163250E-03  2.835333E-01 -9.975809E-03  0.000000E+00  0.000000E+00
151  8.72139406E-02 -6.996585E+00 -1.702419E-03  2.874252E-01 -1.031757E-02  0.000000E+00  0.000000E+00
152  9.40213612E-02 -6.925720E+00  1.914795E-03  2.895279E-01 -1.063246E-02  0.000000E+00  0.000000E+00
153  1.01307240E-01 -6.850987E+00  5.644534E-03  2.895903E-01 -1.091494E-02  0.000000E+00  0.000000E+00
154  1.09099828E-01 -6.772311E+00  9.444352E-03  2.873596E-01 -1.115964E-02  0.000000E+00  0.000000E+00
155  1.17428551E-01 -6.689632E+00  1.327681E-02  2.825857E-01 -1.136054E-02  0.000000E+00  0.000000E+00
156  1.26324021E-01 -6.602908E+00  1.711308E-02  2.750279E-01 -1.151192E-02  0.000000E+00  0.000000E+00
157  1.35818040E-01 -6.512118E+00  2.093614E-02  2.644610E-01 -1.160825E-02  0.000000E+00  0.000000E+00
158  1.45943608E-01 -6.417260E+00  2.474287E-02  2.506833E-01 -1.164430E-02  0.000000E+00  0.000000E+00
159  1.56734918E-01 -6.318361E+00  2.854428E-02  2.335248E-01 -1.161528E-02  0.000000E+00  0.000000E+00
160  1.68227357E-01 -6.215469E+00  3.236296E-02  2.128553E-01 -1.151699E-02  0.000000E+00  0.000000E+00
161  1.80457500E-01 -6.108663E+00  3.622699E-02  1.885931E-01 -1.134601E-02  0.000000E+00  0.000000E+00
162  1.93463100E-01 -5.998053E+00  4.015950E-02  1.607138E-01 -1.109981E-02  0.000000E+00  0.000000E+00
163  2.07283073E-01 -5.883778E+00  4.416397E-02  1.292581E-01 -1.077689E-02  0.000000E+00  0.000000E+00
164  2.21957488E-01 -5.766011E+00  4.820594E-02  9.433932E-02 -1.037695E-02  0.000000E+00  0.000000E+00
165  2.37527547E-01 -5.644959E+00  5.219413E-02  5.614920E-02 -9.900955E-03  0.000000E+00  0.000000E+00
166  2.54035557E-01 -5.520861E+00  5.596556E-02  1.496279E-02 -9.351215E-03  0.000000E+00  0.000000E+00
167  2.71524915E-01 -5.393993E+00  5.928281E-02 -2.885894E-02 -8.731413E-03  0.000000E+00  0.000000E+00
168  2.90040073E-01 -5.264661E+00  6.185227E-02 -7.486830E-02 -8.046581E-03  0.000000E+00  0.000000E+00
169  3.09626510E-01 -5.133206E+00  6.337029E-02 -1.225325E-01 -7.303042E-03  0.000000E+00  0.000000E+00
170  3.30330701E-01 -5.000000E+00  6.359508E-02 -1.712377E-01 -6.508293E-03  0.000000E+00  0.000000E+00
171  3.52200076E-01 -4.865443E+00  6.242844E-02 -2.202951E-01 -5.670880E-03  0.000000E+00  0.000000E+00
172  3.75282987E-01 -4.729960E+00  5.997880E-02 -2.689501E-01 -4.800242E-03  0.000000E+00  0.000000E+00
173  3.99628669E-01 -4.594001E+00  5.657853E-02 -3.163934E-01 -3.906559E-03  0.000000E+00  0.000000E+00
174  4.25287190E-01 -4.458032E+00  5.274516E-02 -3.617753E-01 -3.000587E-03  0.000000E+00  0.000000E+00
175  4.52309418E-01 -4.322535E+00  4.910085E-02 -4.042213E-01 -2.093485E-03  0.000000E+00  0.000000E+00
176  4.80746967E-01 -4.187999E+00  4.627736E-02 -4.428511E-01 -1.196608E-03  0.000000E+00  0.000000E+00
177  5.10652156E-01 -4.054918E+00  4.483299E-02 -4.767985E-01 -3.212808E-04  0.000000E+00  0.000000E+00
178  5.42077957E-01 -3.923784E+00  4.519460E-02 -5.052318E-01  5.214659E-04  0.000000E+00  0.000000E+00
179  5.75077953E-01 -3.795078E+00  4.762763E-02 -5.273757E-01  1.321164E-03  0.000000E+00  0.000000E+00
180  6.09706280E-01 -3.669270E+00  5.222786E-02 -5.425311E-01  2.068178E-03  0.000000E+00  0.000000E+00
181  6.46017586E-01 -3.546807E+00  5.892863E-02 -5.500937E-01  2.753958E-03  0.000000E+00  0.000000E+00
182  6.84066975E-01 -3.428110E+00  6.751613E-02 -5.495708E-01  3.371239E-03  0.000000E+00  0.000000E+00
183  7.23909960E-01 -3.313569E+00  7.764922E-02 -5.405944E-01  3.914205E-03  0.000000E+00  0.000000E+00
184  7.65602413E-01 -3.203535E+00  8.887959E-02 -5.229314E-01  4.378572E-03  0.000000E+00  0.000000E+00
185  8.09200516E-01 -3.098317E+00  1.006740E-01 -4.964904E-01  4.761615E-03  0.000000E+00  0.000000E+00
186  8.54760711E-01 -2.998180E+00  1.124379E-01 -4.613247E-01  5.062120E-03  0.000000E+00  0.000000E+00
187  9.02339653E-01 -2.903338E+00  1.235439E-01 -4.176333E-01  5.280274E-03  0.000000E+00  0.000000E+00
188  9.51994160E-01 -2.813954E+00  1.333678E-01 -3.657581E-01  5.417501E-03  0.000000E+00  0.000000E+00
