#      n =  1
#  kappa = -1
# energy = -5.23646520E+02
#     dn =  8.38906126E-01
#SelfEne =  6.46218167E-02
#     vc = -1.31799372E+03
#  ilast =  221
#    rfn =  3.97070905E+00
#    pdx =  9.99819473E-01
#   bqp0 = -6.29720115E-05
#   bqp1 =  0.00000000E+00
#    idx = 0


0    1.25000000E-07 -2.588883E-02 -7.407120E-08  5.469386E-06 -3.447232E-10  5.469386E-06 -3.447232E-10  5.733973E-06 -3.613687E-10
1    1.37045326E-07 -2.838353E-02 -8.119661E-08  5.996331E-06 -4.143532E-10  5.996331E-06 -4.143532E-10  6.286409E-06 -4.343681E-10
2    1.50251195E-07 -3.111857E-02 -8.900848E-08  6.574046E-06 -4.980468E-10  6.574046E-06 -4.980468E-10  6.892071E-06 -5.221109E-10
3    1.64729398E-07 -3.411715E-02 -9.757317E-08  7.207422E-06 -5.986443E-10  7.207422E-06 -5.986443E-10  7.556087E-06 -6.275750E-10
4    1.80602489E-07 -3.740461E-02 -1.069630E-07  7.901821E-06 -7.195598E-10  7.901821E-06 -7.195598E-10  8.284078E-06 -7.543393E-10
5    1.98004823E-07 -4.100878E-02 -1.172574E-07  8.663118E-06 -8.648966E-10  8.663118E-06 -8.648966E-10  9.082204E-06 -9.067058E-10
6    2.17083691E-07 -4.496014E-02 -1.285434E-07  9.497757E-06 -1.039587E-09  9.497757E-06 -1.039587E-09  9.957220E-06 -1.089845E-09
7    2.38000565E-07 -4.929215E-02 -1.409165E-07  1.041280E-05 -1.249557E-09  1.041280E-05 -1.249557E-09  1.091653E-05 -1.309970E-09
8    2.60932461E-07 -5.404150E-02 -1.544820E-07  1.141600E-05 -1.501933E-09  1.141600E-05 -1.501933E-09  1.196826E-05 -1.574552E-09
9    2.86073436E-07 -5.924831E-02 -1.693540E-07  1.251584E-05 -1.805278E-09  1.251584E-05 -1.805278E-09  1.312130E-05 -1.892567E-09
10   3.13636227E-07 -6.495662E-02 -1.856581E-07  1.372162E-05 -2.169884E-09  1.372162E-05 -2.169884E-09  1.438542E-05 -2.274805E-09
11   3.43854050E-07 -7.121483E-02 -2.035337E-07  1.504356E-05 -2.608119E-09  1.504356E-05 -2.608119E-09  1.577130E-05 -2.734233E-09
12   3.76982563E-07 -7.807573E-02 -2.231303E-07  1.649282E-05 -3.134852E-09  1.649282E-05 -3.134852E-09  1.729068E-05 -3.286439E-09
13   4.13302033E-07 -8.559742E-02 -2.446149E-07  1.808168E-05 -3.767949E-09  1.808168E-05 -3.767949E-09  1.895640E-05 -3.950152E-09
14   4.53119695E-07 -9.384345E-02 -2.681685E-07  1.982358E-05 -4.528886E-09  1.982358E-05 -4.528886E-09  2.078256E-05 -4.747887E-09
15   4.96772350E-07 -1.028836E-01 -2.939909E-07  2.173325E-05 -5.443471E-09  2.173325E-05 -5.443471E-09  2.278461E-05 -5.706700E-09
16   5.44629206E-07 -1.127941E-01 -3.222996E-07  2.382683E-05 -6.542722E-09  2.382683E-05 -6.542722E-09  2.497947E-05 -6.859109E-09
17   5.97094991E-07 -1.236589E-01 -3.533353E-07  2.612204E-05 -7.863916E-09  2.612204E-05 -7.863916E-09  2.738572E-05 -8.244194E-09
18   6.54613369E-07 -1.355697E-01 -3.873591E-07  2.863829E-05 -9.451853E-09  2.863829E-05 -9.451853E-09  3.002369E-05 -9.908920E-09
19   7.17670684E-07 -1.486270E-01 -4.246594E-07  3.139684E-05 -1.136037E-08  3.139684E-05 -1.136037E-08  3.291569E-05 -1.190973E-08
20   7.86800056E-07 -1.629411E-01 -4.655512E-07  3.442103E-05 -1.365417E-08  3.442103E-05 -1.365417E-08  3.608618E-05 -1.431445E-08
21   8.62585878E-07 -1.786328E-01 -5.103806E-07  3.773642E-05 -1.641099E-08  3.773642E-05 -1.641099E-08  3.956195E-05 -1.720459E-08
22   9.45668743E-07 -1.958343E-01 -5.595256E-07  4.137102E-05 -1.972428E-08  4.137102E-05 -1.972428E-08  4.337238E-05 -2.067811E-08
23   1.03675084E-06 -2.146909E-01 -6.134024E-07  4.535557E-05 -2.370632E-08  4.535557E-05 -2.370632E-08  4.754969E-05 -2.485270E-08
24   1.13660186E-06 -2.353611E-01 -6.724658E-07  4.972373E-05 -2.849200E-08  4.972373E-05 -2.849200E-08  5.212916E-05 -2.986981E-08
25   1.24606550E-06 -2.580189E-01 -7.372140E-07  5.451241E-05 -3.424344E-08  5.451241E-05 -3.424344E-08  5.714949E-05 -3.589938E-08
26   1.36606653E-06 -2.828551E-01 -8.081957E-07  5.976207E-05 -4.115542E-08  5.976207E-05 -4.115542E-08  6.265311E-05 -4.314561E-08
27   1.49761863E-06 -3.100778E-01 -8.860075E-07  6.551703E-05 -4.946196E-08  6.551703E-05 -4.946196E-08  6.868647E-05 -5.185383E-08
28   1.64183286E-06 -3.399160E-01 -9.713097E-07  7.182593E-05 -5.944421E-08  7.182593E-05 -5.944421E-08  7.530057E-05 -6.231881E-08
29   1.79992704E-06 -3.726191E-01 -1.064820E-06  7.874202E-05 -7.143994E-08  7.874202E-05 -7.143994E-08  8.255124E-05 -7.489463E-08
30   1.97323597E-06 -4.084606E-01 -1.167326E-06  8.632369E-05 -8.585490E-08  8.632369E-05 -8.585490E-08  9.049967E-05 -9.000667E-08
31   2.16322267E-06 -4.477398E-01 -1.279699E-06  9.463497E-05 -1.031765E-07  9.463497E-05 -1.031765E-07  9.921303E-05 -1.081659E-07
32   2.37149066E-06 -4.907829E-01 -1.402878E-06  1.037460E-04 -1.239899E-07  1.037460E-04 -1.239899E-07  1.087648E-04 -1.299858E-07
33   2.59979740E-06 -5.379476E-01 -1.537910E-06  1.137336E-04 -1.489983E-07  1.137336E-04 -1.489983E-07  1.192355E-04 -1.562035E-07
34   2.85006910E-06 -5.896233E-01 -1.685926E-06  1.246820E-04 -1.790456E-07  1.246820E-04 -1.790456E-07  1.307137E-04 -1.877038E-07
35   3.12441682E-06 -6.462355E-01 -1.848180E-06  1.366838E-04 -2.151451E-07  1.366838E-04 -2.151451E-07  1.432960E-04 -2.255491E-07
36   3.42515421E-06 -7.082468E-01 -2.026032E-06  1.498399E-04 -2.585132E-07  1.498399E-04 -2.585132E-07  1.570885E-04 -2.710143E-07
37   3.75481692E-06 -7.761619E-01 -2.220986E-06  1.642613E-04 -3.106094E-07  1.642613E-04 -3.106094E-07  1.722076E-04 -3.256298E-07
38   4.11618377E-06 -8.505282E-01 -2.434677E-06  1.800696E-04 -3.731850E-07  1.800696E-04 -3.731850E-07  1.887806E-04 -3.912314E-07
39   4.51230010E-06 -9.319409E-01 -2.668907E-06  1.973980E-04 -4.483401E-07  1.973980E-04 -4.483401E-07  2.069473E-04 -4.700209E-07
40   4.94650322E-06 -1.021044E+00 -2.925645E-06  2.163924E-04 -5.385928E-07  2.163924E-04 -5.385928E-07  2.268606E-04 -5.646381E-07
41   5.42245033E-06 -1.118530E+00 -3.207045E-06  2.372128E-04 -6.469606E-07  2.372128E-04 -6.469606E-07  2.486882E-04 -6.782462E-07
42   5.94414906E-06 -1.225147E+00 -3.515471E-06  2.600345E-04 -7.770572E-07  2.600345E-04 -7.770572E-07  2.726139E-04 -8.146341E-07
43   6.51599099E-06 -1.341698E+00 -3.853515E-06  2.850494E-04 -9.332085E-07  2.850494E-04 -9.332085E-07  2.988389E-04 -9.783365E-07
44   7.14278830E-06 -1.469033E+00 -4.224007E-06  3.124681E-04 -1.120588E-06  3.124681E-04 -1.120588E-06  3.275840E-04 -1.174777E-06
45   7.82981387E-06 -1.608057E+00 -4.630043E-06  3.425209E-04 -1.345376E-06  3.425209E-04 -1.345376E-06  3.590907E-04 -1.410436E-06
46   8.58284530E-06 -1.759723E+00 -5.075042E-06  3.754607E-04 -1.614952E-06  3.754607E-04 -1.614952E-06  3.936239E-04 -1.693048E-06
47   9.40821297E-06 -1.925011E+00 -5.562687E-06  4.115638E-04 -1.938109E-06  4.115638E-04 -1.938109E-06  4.314736E-04 -2.031832E-06
48   1.03128528E-05 -2.104936E+00 -6.097085E-06  4.511338E-04 -2.325309E-06  4.511338E-04 -2.325309E-06  4.729578E-04 -2.437756E-06
49   1.13043637E-05 -2.300508E+00 -6.682649E-06  4.945023E-04 -2.788978E-06  4.945023E-04 -2.788978E-06  5.184243E-04 -2.923847E-06
50   1.23910711E-05 -2.512720E+00 -7.324281E-06  5.420333E-04 -3.343835E-06  5.420333E-04 -3.343835E-06  5.682547E-04 -3.505536E-06
51   1.35820958E-05 -2.742495E+00 -8.027278E-06  5.941250E-04 -4.007264E-06  5.941250E-04 -4.007264E-06  6.228663E-04 -4.201047E-06
52   1.48874294E-05 -2.990644E+00 -8.797466E-06  6.512137E-04 -4.799721E-06  6.512137E-04 -4.799721E-06  6.827168E-04 -5.031827E-06
53   1.63180176E-05 -3.257787E+00 -9.641209E-06  7.137773E-04 -5.745170E-06  7.137773E-04 -5.745170E-06  7.483069E-04 -6.022995E-06
54   1.78858501E-05 -3.544257E+00 -1.056542E-05  7.823385E-04 -6.871523E-06  7.823385E-04 -6.871523E-06  8.201848E-04 -7.203817E-06
55   1.96040605E-05 -3.849981E+00 -1.157771E-05  8.574705E-04 -8.211066E-06  8.574705E-04 -8.211066E-06  8.989514E-04 -8.608138E-06
56   2.14870338E-05 -4.174314E+00 -1.268632E-05  9.398000E-04 -9.800818E-06  9.398000E-04 -9.800818E-06  9.852637E-04 -1.027477E-05
57   2.35505258E-05 -4.515843E+00 -1.390027E-05  1.030014E-03 -1.168275E-05  1.030014E-03 -1.168275E-05  1.079841E-03 -1.224771E-05
58   2.58117926E-05 -4.872154E+00 -1.522939E-05  1.128863E-03 -1.390376E-05  1.128863E-03 -1.390376E-05  1.183472E-03 -1.457612E-05
59   2.82897323E-05 -5.239564E+00 -1.668441E-05  1.237170E-03 -1.651531E-05  1.237170E-03 -1.651531E-05  1.297019E-03 -1.731396E-05
60   3.10050403E-05 -5.612848E+00 -1.827698E-05  1.355834E-03 -1.957248E-05  1.355834E-03 -1.957248E-05  1.421424E-03 -2.051898E-05
61   3.39803791E-05 -5.985053E+00 -2.001990E-05  1.485843E-03 -2.313238E-05  1.485843E-03 -2.313238E-05  1.557722E-03 -2.425103E-05
62   3.72405640E-05 -6.347434E+00 -2.192695E-05  1.628273E-03 -2.725167E-05  1.628273E-03 -2.725167E-05  1.707042E-03 -2.856952E-05
63   4.08127655E-05 -6.689800E+00 -2.401309E-05  1.784304E-03 -3.198333E-05  1.784304E-03 -3.198333E-05  1.870621E-03 -3.353001E-05
64   4.47267314E-05 -7.001360E+00 -2.629434E-05  1.955223E-03 -3.737305E-05  1.955223E-03 -3.737305E-05  2.049809E-03 -3.918038E-05
65   4.90150289E-05 -7.272238E+00 -2.878772E-05  2.142439E-03 -4.345598E-05  2.142439E-03 -4.345598E-05  2.246082E-03 -4.555749E-05
66   5.37133096E-05 -7.495432E+00 -3.151171E-05  2.347490E-03 -5.025531E-05  2.347490E-03 -5.025531E-05  2.461052E-03 -5.268564E-05
67   5.88605987E-05 -7.668530E+00 -3.448701E-05  2.572067E-03 -5.778388E-05  2.572067E-03 -5.778388E-05  2.696493E-03 -6.057832E-05
68   6.44996109E-05 -7.794275E+00 -3.773699E-05  2.818024E-03 -6.604918E-05  2.818024E-03 -6.604918E-05  2.954348E-03 -6.924335E-05
69   7.06770959E-05 -7.879600E+00 -4.128754E-05  3.087397E-03 -7.506057E-05  3.087397E-03 -7.506057E-05  3.236752E-03 -7.869057E-05
70   7.74442151E-05 -7.933595E+00 -4.516638E-05  3.382406E-03 -8.483661E-05  3.382406E-03 -8.483661E-05  3.546032E-03 -8.893945E-05
71   8.48569535E-05 -7.965401E+00 -4.940295E-05  3.705475E-03 -9.541048E-05  3.705475E-03 -9.541048E-05  3.884731E-03 -1.000248E-04
72   9.29765683E-05 -7.982782E+00 -5.402881E-05  4.059252E-03 -1.068327E-04  4.059252E-03 -1.068327E-04  4.255622E-03 -1.119994E-04
73   1.01870080E-04 -7.991537E+00 -5.907818E-05  4.446630E-03 -1.191713E-04  4.446630E-03 -1.191713E-04  4.661739E-03 -1.249349E-04
74   1.11610807E-04 -7.995549E+00 -6.458834E-05  4.870773E-03 -1.325109E-04  4.870773E-03 -1.325109E-04  5.106400E-03 -1.389198E-04
75   1.22278950E-04 -7.997170E+00 -7.059990E-05  5.335142E-03 -1.469509E-04  5.335142E-03 -1.469509E-04  5.593234E-03 -1.540584E-04
76   1.33962226E-04 -7.997689E+00 -7.715693E-05  5.843520E-03 -1.626041E-04  5.843520E-03 -1.626041E-04  6.126205E-03 -1.704689E-04
77   1.46756567E-04 -7.997743E+00 -8.430713E-05  6.400041E-03 -1.795955E-04  6.400041E-03 -1.795955E-04  6.709648E-03 -1.882823E-04
78   1.60766872E-04 -7.997612E+00 -9.210202E-05  7.009222E-03 -1.980622E-04  7.009222E-03 -1.980622E-04  7.348299E-03 -2.076425E-04
79   1.76107833E-04 -7.997408E+00 -1.005971E-04  7.675996E-03 -2.181536E-04  7.675996E-03 -2.181536E-04  8.047329E-03 -2.287062E-04
80   1.92904837E-04 -7.997166E+00 -1.098520E-04  8.405750E-03 -2.400323E-04  8.405750E-03 -2.400323E-04  8.812385E-03 -2.516436E-04
81   2.11294939E-04 -7.996897E+00 -1.199308E-04  9.204365E-03 -2.638748E-04  9.204365E-03 -2.638748E-04  9.649633E-03 -2.766400E-04
82   2.31427931E-04 -7.996601E+00 -1.309020E-04  1.007826E-02 -2.898730E-04  1.007826E-02 -2.898730E-04  1.056580E-02 -3.038966E-04
83   2.53467501E-04 -7.996278E+00 -1.428390E-04  1.103444E-02 -3.182356E-04  1.103444E-02 -3.182356E-04  1.156823E-02 -3.336322E-04
84   2.77592495E-04 -7.995924E+00 -1.558198E-04  1.208054E-02 -3.491894E-04  1.208054E-02 -3.491894E-04  1.266494E-02 -3.660846E-04
85   3.03998290E-04 -7.995536E+00 -1.699277E-04  1.322489E-02 -3.829813E-04  1.322489E-02 -3.829813E-04  1.386466E-02 -4.015127E-04
86   3.32898286E-04 -7.995112E+00 -1.852507E-04  1.447659E-02 -4.198798E-04  1.447659E-02 -4.198798E-04  1.517691E-02 -4.401979E-04
87   3.64525531E-04 -7.994648E+00 -2.018817E-04  1.584553E-02 -4.601768E-04  1.584553E-02 -4.601768E-04  1.661207E-02 -4.824466E-04
88   3.99134481E-04 -7.994140E+00 -2.199185E-04  1.734250E-02 -5.041901E-04  1.734250E-02 -5.041901E-04  1.818146E-02 -5.285920E-04
89   4.37002918E-04 -7.993584E+00 -2.394631E-04  1.897926E-02 -5.522653E-04  1.897926E-02 -5.522653E-04  1.989739E-02 -5.789964E-04
90   4.78434025E-04 -7.992976E+00 -2.606217E-04  2.076858E-02 -6.047781E-04  2.076858E-02 -6.047781E-04  2.177327E-02 -6.340539E-04
91   5.23758647E-04 -7.992311E+00 -2.835037E-04  2.272438E-02 -6.621370E-04  2.272438E-02 -6.621370E-04  2.382369E-02 -6.941930E-04
92   5.73337730E-04 -7.991584E+00 -3.082210E-04  2.486182E-02 -7.247860E-04  2.486182E-02 -7.247860E-04  2.606452E-02 -7.598793E-04
93   6.27564981E-04 -7.990788E+00 -3.348866E-04  2.719733E-02 -7.932074E-04  2.719733E-02 -7.932074E-04  2.851302E-02 -8.316188E-04
94   6.86869738E-04 -7.989918E+00 -3.636134E-04  2.974881E-02 -8.679251E-04  2.974881E-02 -8.679251E-04  3.118792E-02 -9.099608E-04
95   7.51720080E-04 -7.988967E+00 -3.945117E-04  3.253567E-02 -9.495073E-04  3.253567E-02 -9.495073E-04  3.410960E-02 -9.955018E-04
96   8.22626199E-04 -7.987927E+00 -4.276869E-04  3.557898E-02 -1.038571E-03  3.557898E-02 -1.038571E-03  3.730012E-02 -1.088889E-03
97   9.00144039E-04 -7.986791E+00 -4.632366E-04  3.890160E-02 -1.135784E-03  3.890160E-02 -1.135784E-03  4.078346E-02 -1.190822E-03
98   9.84879239E-04 -7.985549E+00 -5.012461E-04  4.252827E-02 -1.241871E-03  4.252827E-02 -1.241871E-03  4.458558E-02 -1.302063E-03
99   1.07749138E-03 -7.984191E+00 -5.417841E-04  4.648583E-02 -1.357616E-03  4.648583E-02 -1.357616E-03  4.873457E-02 -1.423434E-03
100  1.17869859E-03 -7.982708E+00 -5.848961E-04  5.080328E-02 -1.483867E-03  5.080328E-02 -1.483867E-03  5.326087E-02 -1.555824E-03
101  1.28928248E-03 -7.981088E+00 -6.305980E-04  5.551199E-02 -1.621540E-03  5.551199E-02 -1.621540E-03  5.819735E-02 -1.700195E-03
102  1.41009350E-03 -7.979319E+00 -6.788667E-04  6.064582E-02 -1.771624E-03  6.064582E-02 -1.771624E-03  6.357951E-02 -1.857586E-03
103  1.54205670E-03 -7.977386E+00 -7.296304E-04  6.624130E-02 -1.935186E-03  6.624130E-02 -1.935186E-03  6.944566E-02 -2.029116E-03
104  1.68617789E-03 -7.975277E+00 -7.827552E-04  7.233780E-02 -2.113376E-03  7.233780E-02 -2.113376E-03  7.583705E-02 -2.215994E-03
105  1.84355033E-03 -7.972973E+00 -8.380309E-04  7.897768E-02 -2.307429E-03  7.897768E-02 -2.307429E-03  8.279809E-02 -2.419516E-03
106  2.01536189E-03 -7.970460E+00 -8.951530E-04  8.620646E-02 -2.518675E-03  8.620646E-02 -2.518675E-03  9.037652E-02 -2.641078E-03
107  2.20290269E-03 -7.967718E+00 -9.537024E-04  9.407299E-02 -2.748537E-03  9.407299E-02 -2.748537E-03  9.862353E-02 -2.882178E-03
108  2.40757339E-03 -7.964726E+00 -1.013120E-03  1.026296E-01 -2.998542E-03  1.026296E-01 -2.998542E-03  1.075940E-01 -3.144419E-03
109  2.63089397E-03 -7.961463E+00 -1.072679E-03  1.119323E-01 -3.270322E-03  1.119323E-01 -3.270322E-03  1.173465E-01 -3.429517E-03
110  2.87451323E-03 -7.957905E+00 -1.131452E-03  1.220407E-01 -3.565617E-03  1.220407E-01 -3.565617E-03  1.279438E-01 -3.739302E-03
111  3.14021885E-03 -7.954027E+00 -1.188269E-03  1.330185E-01 -3.886279E-03  1.330185E-01 -3.886279E-03  1.394525E-01 -4.075722E-03
112  3.42994816E-03 -7.949800E+00 -1.241679E-03  1.449333E-01 -4.234278E-03  1.449333E-01 -4.234278E-03  1.519435E-01 -4.440851E-03
113  3.74579972E-03 -7.945196E+00 -1.289892E-03  1.578568E-01 -4.611696E-03  1.578568E-01 -4.611696E-03  1.654918E-01 -4.836882E-03
114  4.09004551E-03 -7.940181E+00 -1.330724E-03  1.718646E-01 -5.020736E-03  1.718646E-01 -5.020736E-03  1.801769E-01 -5.266135E-03
115  4.46514401E-03 -7.934720E+00 -1.361532E-03  1.870365E-01 -5.463715E-03  1.870365E-01 -5.463715E-03  1.960823E-01 -5.731054E-03
116  4.87375402E-03 -7.928777E+00 -1.379137E-03  2.034563E-01 -5.943062E-03  2.034563E-01 -5.943062E-03  2.132956E-01 -6.234202E-03
117  5.31874944E-03 -7.922310E+00 -1.379739E-03  2.212113E-01 -6.461316E-03  2.212113E-01 -6.461316E-03  2.319088E-01 -6.778260E-03
118  5.80323479E-03 -7.915277E+00 -1.358829E-03  2.403928E-01 -7.021115E-03  2.403928E-01 -7.021115E-03  2.520171E-01 -7.366018E-03
119  6.33056171E-03 -7.907629E+00 -1.311081E-03  2.610951E-01 -7.625187E-03  2.610951E-01 -7.625187E-03  2.737194E-01 -8.000364E-03
120  6.90434641E-03 -7.899317E+00 -1.230247E-03  2.834152E-01 -8.276336E-03  2.834152E-01 -8.276336E-03  2.971174E-01 -8.684271E-03
121  7.52848799E-03 -7.890287E+00 -1.109031E-03  3.074525E-01 -8.977422E-03  3.074525E-01 -8.977422E-03  3.223152E-01 -9.420778E-03
122  8.20718782E-03 -7.880482E+00 -9.389696E-04  3.333078E-01 -9.731342E-03  3.333078E-01 -9.731342E-03  3.494182E-01 -1.021297E-02
123  8.94496982E-03 -7.869838E+00 -7.102985E-04  3.610822E-01 -1.054100E-02  3.610822E-01 -1.054100E-02  3.785323E-01 -1.106394E-02
124  9.74670179E-03 -7.858291E+00 -4.118193E-04  3.908767E-01 -1.140926E-02  3.908767E-01 -1.140926E-02  4.097629E-01 -1.197676E-02
125  1.06176177E-02 -7.845769E+00 -3.077194E-05  4.227898E-01 -1.233893E-02  4.227898E-01 -1.233893E-02  4.432134E-01 -1.295447E-02
126  1.15633411E-02 -7.832197E+00  4.472878E-04  4.569171E-01 -1.333271E-02  4.569171E-01 -1.333271E-02  4.789831E-01 -1.399995E-02
127  1.25899092E-02 -7.817496E+00  1.038593E-03  4.933483E-01 -1.439310E-02  4.933483E-01 -1.439310E-02  5.171658E-01 -1.511596E-02
128  1.37037984E-02 -7.801580E+00  1.761248E-03  5.321660E-01 -1.552237E-02  5.321660E-01 -1.552237E-02  5.578473E-01 -1.630499E-02
129  1.49119502E-02 -7.784359E+00  2.635270E-03  5.734428E-01 -1.672248E-02  5.734428E-01 -1.672248E-02  6.011027E-01 -1.756924E-02
130  1.62217987E-02 -7.765737E+00  3.682588E-03  6.172383E-01 -1.799500E-02  6.172383E-01 -1.799500E-02  6.469937E-01 -1.891052E-02
131  1.76412984E-02 -7.745615E+00  4.926971E-03  6.635967E-01 -1.934099E-02  6.635967E-01 -1.934099E-02  6.955648E-01 -2.033011E-02
132  1.91789529E-02 -7.723885E+00  6.393873E-03  7.125426E-01 -2.076091E-02  7.125426E-01 -2.076091E-02  7.468402E-01 -2.182874E-02
133  2.08438450E-02 -7.700436E+00  8.110173E-03  7.640776E-01 -2.225453E-02  7.640776E-01 -2.225453E-02  8.008194E-01 -2.340636E-02
134  2.26456665E-02 -7.675151E+00  1.010380E-02  8.181764E-01 -2.382076E-02  8.181764E-01 -2.382076E-02  8.574727E-01 -2.506212E-02
135  2.45947496E-02 -7.647906E+00  1.240317E-02  8.747820E-01 -2.545756E-02  8.747820E-01 -2.545756E-02  9.167368E-01 -2.679417E-02
136  2.67020979E-02 -7.618574E+00  1.503652E-02  9.338012E-01 -2.716178E-02  9.338012E-01 -2.716178E-02  9.785095E-01 -2.859950E-02
137  2.89794186E-02 -7.587022E+00  1.803098E-02  9.951004E-01 -2.892904E-02  9.951004E-01 -2.892904E-02  1.042645E+00 -3.047386E-02
138  3.14391547E-02 -7.553112E+00  2.141144E-02  1.058500E+00 -3.075356E-02  1.058500E+00 -3.075356E-02  1.108949E+00 -3.241153E-02
139  3.40945174E-02 -7.516700E+00  2.519928E-02  1.123771E+00 -3.262806E-02  1.123771E+00 -3.262806E-02  1.177170E+00 -3.440522E-02
140  3.69595181E-02 -7.477641E+00  2.941073E-02  1.190628E+00 -3.454362E-02  1.190628E+00 -3.454362E-02  1.247003E+00 -3.644592E-02
141  4.00490015E-02 -7.435784E+00  3.405513E-02  1.258729E+00 -3.648957E-02  1.258729E+00 -3.648957E-02  1.318073E+00 -3.852272E-02
142  4.33786767E-02 -7.390975E+00  3.913301E-02  1.327668E+00 -3.845340E-02  1.327668E+00 -3.845340E-02  1.389941E+00 -4.062278E-02
143  4.69651498E-02 -7.343059E+00  4.463393E-02  1.396977E+00 -4.042072E-02  1.396977E+00 -4.042072E-02  1.462097E+00 -4.273116E-02
144  5.08259544E-02 -7.291880E+00  5.053438E-02  1.466120E+00 -4.237525E-02  1.466120E+00 -4.237525E-02  1.533959E+00 -4.483083E-02
145  5.49795817E-02 -7.237280E+00  5.679567E-02  1.534494E+00 -4.429882E-02  1.534494E+00 -4.429882E-02  1.604872E+00 -4.690263E-02
146  5.94455102E-02 -7.179103E+00  6.336201E-02  1.601437E+00 -4.617149E-02  1.601437E+00 -4.617149E-02  1.674109E+00 -4.892535E-02
147  6.42442337E-02 -7.117195E+00  7.015891E-02  1.666222E+00 -4.797169E-02  1.666222E+00 -4.797169E-02  1.740881E+00 -5.087581E-02
148  6.93972879E-02 -7.051407E+00  7.709219E-02  1.728071E+00 -4.967645E-02  1.728071E+00 -4.967645E-02  1.804333E+00 -5.272908E-02
